Hour	Temp	Solar
1	68.820	0.000
2	67.587	0.000
3	66.750	0.000
4	65.737	0.000
5	65.193	4.567
6	66.507	81.300
7	70.430	227.667
8	74.443	396.800
9	78.150	567.167
10	80.987	685.167
11	83.073	722.133
12	84.540	761.033
13	85.880	765.733
14	86.670	715.267
15	87.220	625.433
16	87.410	493.533
17	87.090	356.300
18	85.517	193.367
19	82.920	66.833
20	78.750	3.200
21	75.453	0.000
22	73.520	0.000
23	72.093	0.000
24	70.843	0.000
